Problem Size	VAST	Standard Deviation	Lower 95% CI of Mean	Upper 95% CI of Mean	OpenCL	Standard Deviation	Lower 95% CI of Mean	Upper 95% CI of Mean		
N	us				us					
		Statistics On Rows of [vast-transposed.txt]vast-transposed!Col(B)[1]:Col(K)[82]	Statistics On Rows of [vast-transposed.txt]vast-transposed!Col(B)[1]:Col(K)[82]	Statistics On Rows of [vast-transposed.txt]vast-transposed!Col(B)[1]:Col(K)[82]		Statistics On Rows of [vast-transposed.txt]vast-transposed!Col(B)[1]:Col(K)[82]	Statistics On Rows of [vast-transposed.txt]vast-transposed!Col(B)[1]:Col(K)[82]	Statistics On Rows of [vast-transposed.txt]vast-transposed!Col(B)[1]:Col(K)[82]		
20000	4528.4	756.05705252095	3987.54950356996	5069.25049643004	6488.2	1057.54346377715	5731.6791720108	7244.7208279892	--	--
100000	16830.9	1685.16807272549	15625.403687701	18036.396312299	10591.8	647.860718913496	10128.3484783542	11055.2515216458	--	--
250000	38837.1	3142.64766116442	36588.9858636685	41085.2141363315	18091.7	1613.0323445128	16937.8064659359	19245.5935340641	--	--
500000	65499.2	2102.13319167829	63995.4248860845	67002.9751139155	26782.2	1653.00889289804	25599.7089732366	27964.6910267634	--	--
750000	88967.5	1755.34119823532	87711.8048705066	90223.1951294934	35790.4	1655.42241671961	34606.1824427418	36974.6175572582	--	--
1000000	113291.5	2745.4605057966	111327.516366043	115255.483633957	50445.2	3541.67326430758	47911.640215316	52978.759784684	--	--
1250000	140466.1	3205.42943734186	138173.07449792	142759.12550208	59962.1	1442.82534940612	58929.9651843982	60994.2348156018	--	--
1500000	164773	2009.09841581851	163335.777938584	166210.222061416	61795.7	2084.37995310089	60304.6247846779	63286.7752153221	--	--
1750000	186904.7	2585.94199685745	185054.829004053	188754.570995947	71306.7	1231.32954790972	70425.8601281472	72187.5398718528	--	--
2000000	208893.8	10976.9862976036	201041.339040117	216746.260959883	91447.9	4476.40851700457	88245.6710669149	94650.1289330851	--	--
2250000	238896.7	5888.77346312456	234684.126305627	243109.273694373	91607.6	5742.07829583989	87499.9656799575	95715.2343200424	--	--
2500000	258280.3	18505.2644584663	245042.434635794	271518.165364206	102593.1	8028.94226394597	96849.5421629504	108336.65783705	--	--
2750000	274816.9	20528.1813257883	260131.927452176	289501.872547824	116070.9	5740.88137735739	111964.121903642	120177.678096358	--	--
3000000	288049.2	20325.2920153958	273509.365684642	302589.034315358	125519.5	2689.66335150785	123595.431235557	127443.568764443	--	--
3250000	301648.2	17293.0323078401	289277.513056085	314018.886943915	121350.1	7836.9651077442	115743.87431254	126956.32568746	--	--
3500000	331703.8	21950.0468984566	316001.686353803	347405.913646197	125209	3725.56719022606	122543.890458863	127874.109541137	--	--
3750000	345827.7	19889.4749388828	331599.630360864	360055.769639136	151719.8	2043.57240580748	150257.916738034	153181.683261966	--	--
4000000	379469.3	26732.0389713667	360346.356169183	398592.243830817	158645.6	6549.38407960796	153960.454059021	163330.745940979	--	--
4250000	414355.5	26570.6105364137	395348.035085611	433362.964914389	168887.8	14803.3218704452	158298.144158886	179477.455841114	--	--
4500000	428824.7	23786.0135703036	411809.215249616	445840.184750384	187275.6	15835.3856718988	175947.650378671	198603.549621329	--	--
4750000	465345.2	27243.2120263215	445856.585087071	484833.814912929	198194.5	20103.4855753369	183813.336413018	212575.663586982	--	--
5000000	476994.3	21561.4229588659	461570.19110219	492418.408897811	180063.8	12690.1034826356	170985.849142393	189141.750857607	--	--
5250000	488798.3	23147.7046092648	472239.433857038	505357.166142962	211531.3	23355.0352745993	194824.11847145	228238.48152855	--	--
5500000	511402.8	18038.4414564501	498498.879609316	524306.720390684	228809.6	12419.8592691973	219924.970157663	237694.229842337	--	--
5750000	523514.7	7784.93526769634	517945.694208479	529083.705791521	241310.6	23893.5291016906	224218.203291278	258402.996708722	--	--
6000000	539874.2	11582.1134302471	531588.857276761	548159.542723239	228484.5	9029.766789778	222024.995608612	234944.004391388	--	--
6250000	555739.9	25682.2495140126	537367.930116538	574111.869883462	255109.2	20897.0886903734	240160.327088299	270058.072911701	--	--
6500000	572637.5	18587.5954768526	559340.738588178	585934.261411822	261476.9	16253.1159709967	249850.124200293	273103.675799707	--	--
6750000	594384.3	14546.9340034249	583978.052943573	604790.547056428	228504	18191.3136475138	215490.72145949	241517.27854051	--	--
7000000	598541.3	24354.2277783094	581119.33939511	615963.26060489	250718.1	42153.6553007104	220563.199229336	280873.000770664	--	--
7250000	632909.8	36510.9512241038	606791.445533434	659028.154466567	298045.6	18234.3565355805	285001.53044008	311089.66955992	--	--
7500000	654238.8	14731.2093023998	643700.730369339	664776.869630661	291904.5	2388.98431463154	290195.524006424	293613.475993576	--	--
7750000	675028.8	19976.8622483334	660738.217261436	689319.382738564	294555.8	24514.4177477482	277019.246423316	312092.353576684	--	--
8000000	712844	18134.2071113009	699871.573004167	725816.426995832	316452.8	8851.07841263801	310121.121540743	322784.478459257	--	--
8250000	737998.3	20550.0300678342	723297.697807638	752698.902192362	341150.1	29596.0186528526	319978.389045945	362321.810954055	--	--
8500000	770686.2	20531.4155154161	755998.913852879	785373.486147121	297549.2	16429.884788938	285795.971437742	309302.428562258	--	--
8750000	787993.3	11849.2895431658	779516.831047828	796469.768952172	308369.7	34593.8057783953	283622.788419367	333116.611580632	--	--
9000000	833750.9	26312.7572035991	814927.892201107	852573.907798893	361892.9	34471.2445813737	337233.663395788	386552.136604212	--	--
9250000	876210.9	20957.9384983352	861218.497769005	891203.302230995	368712.7	23843.0225388663	351656.433500613	385768.966499387	--	--
9500000	878871.1	19292.9096328159	865069.787364008	892672.412635992	351594.3	14578.2857325544	341165.625273323	362022.974726677	--	--
9750000	885212.1	14933.1838716479	874529.546503102	895894.653496898	381657	34577.6730339745	356921.629086569	406392.370913431	--	--
10000000	925194	15709.9589432945	913955.775232378	936432.224767622	413684.9	40139.6905636359	384970.702446384	442399.097553616	--	--
10250000	947054.9	37484.3864634923	920240.192089325	973869.607910675	355180.2	25403.3225246008	337007.762413986	373352.637586014	--	--
10500000	970798	37336.8635027398	944088.823631279	997507.176368721	374703	53167.2098258566	336669.478941987	412736.521058013	--	--
10750000	958058.1	15297.3179599127	947115.060734537	969001.139265463	430262.3	41181.0303579748	400803.173022285	459721.426977715	--	--
11000000	985863.4	48216.6954745852	951371.262671616	1020355.53732838	442978.5	28141.2327861134	422847.479898047	463109.520101953	--	--
11250000	998168.9	5799.47929559196	994020.203488807	1002317.59651119	427417.4	36551.4932395989	401270.043530035	453564.756469965	--	--
11500000	1022004.9	19932.2230819567	1007746.25018927	1036263.54981073	440133.5	38054.2540336236	412911.133491105	467355.866508895	--	--
11750000	1050503.9	39580.8861263166	1022189.44695816	1078818.35304184	475766.5	25002.291136125	457880.942914363	493652.057085637	--	--
12000000	1044100.7	28707.5420908862	1023564.56672888	1064636.83327112	443408.5	51517.6225453215	406555.022295339	480261.977704661	--	--
12250000	1057180.1	20549.8106152398	1042479.65479453	1071880.54520547	474332.9	31906.0458549786	451508.695553727	497157.104446273	--	--
12500000	1075067	14285.6399771083	1064847.6713823	1085286.3286177	496587	30004.9492547109	475122.757790158	518051.242209842	--	--
12750000	1097249.2	22965.2174327467	1080820.87728585	1113677.52271415	523426.7	56085.7670755741	483305.369388322	563548.030611678	--	--
13000000	1160823.5	93334.2990345874	1094056.18158337	1227590.81841663	506196.6	49789.1591707807	470579.590192919	541813.609807081	--	--
13250000	1144309.2	24894.7398361805	1126500.58045998	1162117.81954002	483799.3	7584.34865071191	478373.785193732	489224.814806268	--	--
13500000	1179689.3	27137.7061957467	1160276.15939242	1199102.44060758	536500.1	33886.6967422321	512259.023623158	560741.176376842	--	--
13750000	1214625.3	20891.8875645814	1199680.14774861	1229570.45225139	558955.1	41402.482959493	529337.555414689	588572.644585311	--	--
14000000	1233461.8	18268.5604298143	1220393.26245434	1246530.33754566	467143.2	33992.4395280284	442826.479810299	491459.920189701	--	--
14250000	1210374.9	41154.9992277163	1180934.39456636	1239815.40543364	572892.2	56361.1749775006	532573.85449377	613210.54550623	--	--
14500000	1227016.7	55828.9824056964	1187079.0620286	1266954.3379714	581234.4	36025.9361238539	555463.004346755	607005.795653245	--	--
14750000	1266494.9	25542.9532941845	1248222.57660405	1284767.22339595	575335.9	62914.4080962382	530329.655116768	620342.144883232	--	--
15000000	1277208.5	34197.4910621298	1252745.09481656	1301671.90518344	596913.3	75818.1962563517	542676.24348826	651150.35651174	--	--
15250000	1302489.1	20019.7811312823	1288167.81494992	1316810.38505008	677417.1	73383.1224502231	624921.989909495	729912.210090505	--	--
15500000	1338896.7	35141.8163764102	1313757.76535312	1364035.63464688	638110.6	45997.3809355852	605206.064250294	671015.135749706	--	--
15750000	1382706.1	78180.337464736	1326779.26989124	1438632.93010876	575927.2	67942.4961841507	527324.078493008	624530.321506992	--	--
16000000	1389295.2	34312.4284408887	1364749.5735898	1413840.8264102	665051.8	58451.9198502306	623237.826090392	706865.773909608	--	--
16250000	1434243.9	28783.7072218527	1413653.28149029	1454834.51850971	662578.4	47193.4425346008	628818.253542833	696338.546457167	--	--
16500000	1477731.8	28280.6923214015	1457501.01658172	1497962.58341828	628673.9	54825.3732468422	589454.200588896	667893.599411104	--	--
16750000	1523823.6	49697.8763355807	1488271.88998289	1559375.31001711	629174.9	42978.4572972967	598429.971574911	659919.828425089	--	--
17000000	1535925.1	42424.5902683023	1505576.38407844	1566273.81592156	680455.7	24427.6224797075	662981.236001942	697930.163998058	--	--
17250000	1632784.9	74464.0924897512	1579516.51072302	1686053.28927698	703082.5	45732.0866527115	670367.74429945	735797.25570055	--	--
17500000	1641557.6	33762.4972917848	1617405.37053518	1665709.82946482	593467.3	43025.8641234161	562688.458783072	624246.141216928	--	--
17750000	1675016	26000.9527432276	1656416.04361848	1693615.95638152	624651.2	87871.8443160897	561791.485297102	687510.914702898	--	--
18000000	1682839.8	32173.0081686842	1659824.6222675	1705854.9777325	760735.9	87911.9245677804	697847.513619546	823624.286380454	--	--
18250000	1731548.5	81659.5805337282	1673132.76996657	1789964.23003343	698383.2	78657.1323089436	642115.291493351	754651.108506649	--	--
18500000	1745315.5	12837.351710709	1736132.21413231	1754498.78586769	694223.6	50910.5217638424	657804.415921661	730642.784078339	--	--
18750000	1746065.5	25802.450268014	1727607.5436989	1764523.4563011	771042.3	70647.0398153934	720504.465020397	821580.134979603	--	--
19000000	1828592.9	56036.3951264414	1788506.88794412	1868678.91205588	776305.4	61524.2163310965	732293.638143945	820317.161856055	--	--
19250000	1809631.6	42248.4474302508	1779408.88904206	1839854.31095794	728397.8	63563.927215573	682926.917247229	773868.682752771	--	--
19500000	1791836.5	39891.5773322584	1763299.79191482	1820373.20808518	740656.5	76506.0858701232	685927.357027514	795385.642972486	--	--
19750000	1819259.8	28155.8935129239	1799118.29224854	1839401.30775146	799853.4	47486.2311393758	765883.805245626	833822.994754374	--	--
20000000	1847662.9	116536.831135006	1764297.49422594	1931028.30577406	766563	59423.741362822	724053.827036598	809072.172963402	--	--
